 #  time , Temp
   9.9999997473787516E-005   1.8649193649519757     
   1.9999999494757503E-004   1.8649193952917444     
   2.9999999242136255E-004   1.8649194458579383     
   3.9999998989515007E-004   1.8649195166504944     
   4.9999998736893758E-004   1.8649196076693599     
   5.9999998484272510E-004   1.8649197189144910     
   6.9999998231651261E-004   1.8649198503858613     
   7.9999997979030013E-004   1.8649200020834418     
   8.9999997726408765E-004   1.8649201740072245     
   9.9999997473787516E-004   1.8649203661572022     
   1.0999999722116627E-003   1.8649205785333913     
   1.1999999696854502E-003   1.8649208111358055     
   1.2999999671592377E-003   1.8649210639644755     
   1.3999999646330252E-003   1.8649213370194411     
   1.4999999621068127E-003   1.8649216303007476     
   1.5999999595806003E-003   1.8649219438084594     
   1.6999999570543878E-003   1.8649222775426473     
   1.7999999545281753E-003   1.8649226315033869     
   1.8999999520019628E-003   1.8649230056907706     
   1.9999999494757503E-003   1.8649234045780709     
   2.0999999469495378E-003   1.8649238281628200     
   2.1999999444233254E-003   1.8649242719693739     
   2.2999999418971129E-003   1.8649247359978824     
   2.3999999393709004E-003   1.8649252202484790     
   2.4999999368446879E-003   1.8649257247213222     
   2.5999999343184754E-003   1.8649262494165797     
   2.6999999317922629E-003   1.8649268120444193     
   2.7999999292660505E-003   1.8649274125975954     
   2.8999999267398380E-003   1.8649280333588651     
   2.9999999242136255E-003   1.8649286743284432     
   3.0999999216874130E-003   1.8649293355065562     
   3.1999999191612005E-003   1.8649300168934368     
   3.2999999166349880E-003   1.8649307184893247     
   3.3999999141087756E-003   1.8649314402944801     
   3.4999999115825631E-003   1.8649321823091638     
   3.5999999090563506E-003   1.8649329445336540     
   3.6999999065301381E-003   1.8649337269682322     
   3.7999999040039256E-003   1.8649345296131978     
   3.8999999014777131E-003   1.8649353524688528     
   3.9999998989515007E-003   1.8649362185837779     
   4.0999998964252882E-003   1.8649371279531701     
   4.1999998938990757E-003   1.8649380575239614     
   4.2999998913728632E-003   1.8649390072965029     
   4.3999998888466507E-003   1.8649399772711468     
   4.4999998863204382E-003   1.8649409674482678     
   4.5999998837942258E-003   1.8649419778282454     
   4.6999998812680133E-003   1.8649430084114693     
   4.7999998787418008E-003   1.8649440591983337     
   4.8999998762155883E-003   1.8649451301892532     
   4.9999998736893758E-003   1.8649462213846448     
   5.0999998711631633E-003   1.8649473327849388     
   5.1999998686369509E-003   1.8649484643905792     
   5.2999998661107384E-003   1.8649496162020114     
   5.3999998635845259E-003   1.8649507882196976     
   5.4999998610583134E-003   1.8649519804441084     
   5.5999998585321009E-003   1.8649531928757261     
   5.6999998560058884E-003   1.8649544255150399     
   5.7999998534796759E-003   1.8649556783625516     
   5.8999998509534635E-003   1.8649569514187763     
   5.9999998484272510E-003   1.8649582446842246     
   6.0999998459010385E-003   1.8649595581594423     
   6.1999998433748260E-003   1.8649608918449643     
   6.2999998408486135E-003   1.8649622457413435     
   6.3999998383224010E-003   1.8649636198491397     
   6.4999998357961886E-003   1.8649650141689293     
   6.5999998332699761E-003   1.8649664287012970     
   6.6999998307437636E-003   1.8649678634468279     
   6.7999998282175511E-003   1.8649693184061333     
   6.8999998256913386E-003   1.8649707935798199     
   6.9999998231651261E-003   1.8649722889685147     
   7.0999998206389137E-003   1.8649738045728528     
   7.1999998181127012E-003   1.8649753403934732     
   7.2999998155864887E-003   1.8649768964310329     
   7.3999998130602762E-003   1.8649784726861949     
   7.4999998105340637E-003   1.8649800691596357     
   7.5999998080078512E-003   1.8649816858520367     
   7.6999998054816388E-003   1.8649833227640946     
   7.7999998029554263E-003   1.8649849798965117     
   7.8999998004292138E-003   1.8649866631956178     
   7.9999997979030013E-003   1.8649883844377544     
   8.0999997953767888E-003   1.8649901376779843     
   8.1999997928505763E-003   1.8649919111413877     
   8.2999997903243639E-003   1.8649937048287186     
   8.3999997877981514E-003   1.8649955187407410     
   8.4999997852719389E-003   1.8649973528782298     
   8.5999997827457264E-003   1.8649992072419714     
   8.6999997802195139E-003   1.8650010818327580     
   8.7999997776933014E-003   1.8650029766513980     
   8.8999997751670890E-003   1.8650048916987074     
   8.9999997726408765E-003   1.8650068269755073     
   9.0999997701146640E-003   1.8650087824826376     
   9.1999997675884515E-003   1.8650107582209403     
   9.2999997650622390E-003   1.8650127541912771     
   9.3999997625360265E-003   1.8650147703945108     
   9.4999997600098141E-003   1.8650168068315183     
   9.5999997574836016E-003   1.8650188635031864     
   9.6999997549573891E-003   1.8650209404104154     
   9.7999997524311766E-003   1.8650230375541030     
   9.8999997499049641E-003   1.8650251549351733     
   9.9999997473787516E-003   1.8650272925545510     
   1.0099999744852539E-002   1.8650294504131768     
   1.0199999742326327E-002   1.8650316285119923     
   1.0299999739800114E-002   1.8650338268519615     
   1.0399999737273902E-002   1.8650360454340478     
   1.0499999734747689E-002   1.8650382842592321     
   1.0599999732221477E-002   1.8650405433284964     
   1.0699999729695264E-002   1.8650428226428459     
   1.0799999727169052E-002   1.8650451222032860     
   1.0899999724642839E-002   1.8650474420108325     
   1.0999999722116627E-002   1.8650497820665188     
   1.1099999719590414E-002   1.8650521423713813     
   1.1199999717064202E-002   1.8650545229264675     
   1.1299999714537989E-002   1.8650569237328374     
   1.1399999712011777E-002   1.8650593447915600     
   1.1499999709485564E-002   1.8650617861037158     
   1.1599999706959352E-002   1.8650642476703925     
   1.1699999704433139E-002   1.8650667294926928     
   1.1799999701906927E-002   1.8650692315717192     
   1.1899999699380714E-002   1.8650717539085977     
   1.1999999696854502E-002   1.8650742965044558     
   1.2099999694328289E-002   1.8650768593604350     
   1.2199999691802077E-002   1.8650794424776813     
   1.2299999689275865E-002   1.8650820458573623     
   1.2399999686749652E-002   1.8650846695006413     
   1.2499999684223440E-002   1.8650873134087020     
   1.2599999681697227E-002   1.8650899775827312     
   1.2699999679171015E-002   1.8650926620239365     
   1.2799999676644802E-002   1.8650953667335224     
   1.2899999674118590E-002   1.8650980917127151     
   1.2999999671592377E-002   1.8651008369627389     
   1.3099999669066165E-002   1.8651036024848373     
   1.3199999666539952E-002   1.8651063882802676     
   1.3299999664013740E-002   1.8651091943502829     
   1.3399999661487527E-002   1.8651120206961571     
   1.3499999658961315E-002   1.8651148673191742     
   1.3599999656435102E-002   1.8651177342206260     
   1.3699999653908890E-002   1.8651206214018128     
   1.3799999651382677E-002   1.8651235288640433     
   1.3899999648856465E-002   1.8651264566086421     
   1.3999999646330252E-002   1.8651294046369455     
   1.4099999643804040E-002   1.8651323729502858     
   1.4199999641277827E-002   1.8651353615500252     
   1.4299999638751615E-002   1.8651383704375193     
   1.4399999636225402E-002   1.8651413996141464     
   1.4499999633699190E-002   1.8651444490812823     
   1.4599999631172977E-002   1.8651475188403268     
   1.4699999628646765E-002   1.8651506088926753     
   1.4799999626120552E-002   1.8651537192397449     
   1.4899999623594340E-002   1.8651568498829580     
   1.4999999621068127E-002   1.8651600008237479     
   1.5099999618541915E-002   1.8651631720635569     
   1.5199999616015702E-002   1.8651663636038358     
   1.5299999613489490E-002   1.8651695754460524     
   1.5399999610963278E-002   1.8651728075916780     
   1.5499999608437065E-002   1.8651760600421947     
   1.5599999605910853E-002   1.8651793327991009     
   1.5699999603384640E-002   1.8651826258638922     
   1.5799999600858428E-002   1.8651859392380856     
   1.5899999598332215E-002   1.8651892729232082     
   1.5999999595806003E-002   1.8651926269207917     
   1.6099999593279790E-002   1.8651960012323772     
   1.6199999590753578E-002   1.8651993958595237     
   1.6299999588227365E-002   1.8652028108037901     
   1.6399999585701153E-002   1.8652062460667511     
   1.6499999583174940E-002   1.8652097016499933     
   1.6599999580648728E-002   1.8652131775551122     
   1.6699999578122515E-002   1.8652166737837093     
   1.6799999575596303E-002   1.8652201903373957     
   1.6899999573070090E-002   1.8652237272178054     
   1.6999999570543878E-002   1.8652272844265634     
   1.7099999568017665E-002   1.8652308619653168     
   1.7199999565491453E-002   1.8652344598357224     
   1.7299999562965240E-002   1.8652380780394409     
   1.7399999560439028E-002   1.8652417165781505     
   1.7499999557912815E-002   1.8652453754535387     
   1.7599999555386603E-002   1.8652490546672906     
   1.7699999552860390E-002   1.8652527542211226     
   1.7799999550334178E-002   1.8652564741167397     
   1.7899999547807965E-002   1.8652602143558714     
   1.7999999545281753E-002   1.8652639749402544     
   1.8099999542755540E-002   1.8652677558716302     
   1.8199999540229328E-002   1.8652715571517540     
   1.8299999537703115E-002   1.8652753787823926     
   1.8399999535176903E-002   1.8652792207653199     
   1.8499999532650691E-002   1.8652830831023244     
   1.8599999530124478E-002   1.8652869657951938     
   1.8699999527598266E-002   1.8652908688457428     
   1.8799999525072053E-002   1.8652947922557799     
   1.8899999522545841E-002   1.8652987360271314     
   1.8999999520019628E-002   1.8653027001616365     
   1.9099999517493416E-002   1.8653066846611377     
   1.9199999514967203E-002   1.8653106895274865     
   1.9299999512440991E-002   1.8653147147625533     
   1.9399999509914778E-002   1.8653187603682144     
   1.9499999507388566E-002   1.8653228263463519     
   1.9599999504862353E-002   1.8653269126988645     
   1.9699999502336141E-002   1.8653310194276573     
   1.9799999499809928E-002   1.8653351465346426     
   1.9899999497283716E-002   1.8653392940217468     
   1.9999999494757503E-002   1.8653434618909079     
   2.0099999492231291E-002   1.8653476501440689     
   2.0199999489705078E-002   1.8653518587831897     
   2.0299999487178866E-002   1.8653560878102311     
   2.0399999484652653E-002   1.8653603372271677     
   2.0499999482126441E-002   1.8653646070359897     
   2.0599999479600228E-002   1.8653688972386941     
   2.0699999477074016E-002   1.8653732078372796     
   2.0799999474547803E-002   1.8653775388337668     
   2.0899999472021591E-002   1.8653818902301780     
   2.0999999469495378E-002   1.8653862620285540     
   2.1099999466969166E-002   1.8653906542309371     
   2.1199999464442953E-002   1.8653950668393831     
   2.1299999461916741E-002   1.8653994998559558     
   2.1399999459390529E-002   1.8654039532827338     
   2.1499999456864316E-002   1.8654084271218025     
   2.1599999454338104E-002   1.8654129213752559     
   2.1699999451811891E-002   1.8654174360452005     
   2.1799999449285679E-002   1.8654219711337541     
   2.1899999446759466E-002   1.8654265266430374     
   2.1999999444233254E-002   1.8654311025751884     
   2.2099999441707041E-002   1.8654356989323544     
   2.2199999439180829E-002   1.8654403157166868     
   2.2299999436654616E-002   1.8654449529303554     
   2.2399999434128404E-002   1.8654496105755343     
   2.2499999431602191E-002   1.8654542886544043     
   2.2599999429075979E-002   1.8654589871691729     
   2.2699999426549766E-002   1.8654637061220332     
   2.2799999424023554E-002   1.8654684455152053     
   2.2899999421497341E-002   1.8654732053509131     
   2.2999999418971129E-002   1.8654779856313977     
   2.3099999416444916E-002   1.8654827863588956     
   2.3199999413918704E-002   1.8654876075356690     
   2.3299999411392491E-002   1.8654924491639790     
   2.3399999408866279E-002   1.8654973112461009     
   2.3499999406340066E-002   1.8655021937843237     
   2.3599999403813854E-002   1.8655070967809380     
   2.3699999401287641E-002   1.8655120202382500     
   2.3799999398761429E-002   1.8655169641585791     
   2.3899999396235216E-002   1.8655219285442437     
   2.3999999393709004E-002   1.8655269133975831     
   2.4099999391182791E-002   1.8655319187209387     
   2.4199999388656579E-002   1.8655369445166716     
   2.4299999386130366E-002   1.8655419907871340     
   2.4399999383604154E-002   1.8655470575347166     
   2.4499999381077942E-002   1.8655521447617935     
   2.4599999378551729E-002   1.8655572524707622     
   2.4699999376025517E-002   1.8655623806640289     
   2.4799999373499304E-002   1.8655675293440028     
   2.4899999370973092E-002   1.8655726985131122     
   2.4999999368446879E-002   1.8655778881737939     
   2.5099999365920667E-002   1.8655830983284847     
   2.5199999363394454E-002   1.8655883289796473     
   2.5299999360868242E-002   1.8655935801297396     
   2.5399999358342029E-002   1.8655988517812376     
   2.5499999355815817E-002   1.8656041439366262     
   2.5599999353289604E-002   1.8656094565983992     
   2.5699999350763392E-002   1.8656147897690580     
   2.5799999348237179E-002   1.8656201434511201     
   2.5899999345710967E-002   1.8656255176471064     
   2.5999999343184754E-002   1.8656309123595520     
   2.6099999340658542E-002   1.8656363275909966     
   2.6199999338132329E-002   1.8656417633439981     
   2.6299999335606117E-002   1.8656472196211198     
   2.6399999333079904E-002   1.8656526964249320     
   2.6499999330553692E-002   1.8656581937580214     
   2.6599999328027479E-002   1.8656637116229748     
   2.6699999325501267E-002   1.8656692500224032     
   2.6799999322975054E-002   1.8656748089589137     
   2.6899999320448842E-002   1.8656803884351283     
   2.6999999317922629E-002   1.8656859884536843     
   2.7099999315396417E-002   1.8656916090172206     
   2.7199999312870204E-002   1.8656972501283917     
   2.7299999310343992E-002   1.8657029117898600     
   2.7399999307817779E-002   1.8657085940042970     
   2.7499999305291567E-002   1.8657142967743814     
   2.7599999302765355E-002   1.8657200201028130     
   2.7699999300239142E-002   1.8657257639922844     
   2.7799999297712930E-002   1.8657315284455167     
   2.7899999295186717E-002   1.8657373134652231     
   2.7999999292660505E-002   1.8657431190541389     
   2.8099999290134292E-002   1.8657489452150069     
   2.8199999287608080E-002   1.8657547919505737     
   2.8299999285081867E-002   1.8657606592636087     
   2.8399999282555655E-002   1.8657665471568754     
   2.8499999280029442E-002   1.8657724556331563     
   2.8599999277503230E-002   1.8657783846952427     
   2.8699999274977017E-002   1.8657843343459337     
   2.8799999272450805E-002   1.8657903045880466     
   2.8899999269924592E-002   1.8657962954243901     
   2.8999999267398380E-002   1.8658023068578049     
   2.9099999264872167E-002   1.8658083388911266     
   2.9199999262345955E-002   1.8658143915272036     
   2.9299999259819742E-002   1.8658204647688981     
   2.9399999257293530E-002   1.8658265586190801     
   2.9499999254767317E-002   1.8658326730806256     
   2.9599999252241105E-002   1.8658388081564283     
   2.9699999249714892E-002   1.8658449638493841     
   2.9799999247188680E-002   1.8658511401624043     
   2.9899999244662467E-002   1.8658573370984095     
   2.9999999242136255E-002   1.8658635546603208     
   3.0099999239610042E-002   1.8658697928510823     
   3.0199999237083830E-002   1.8658760516736406     
   3.0299999234557617E-002   1.8658823311309580     
   3.0399999232031405E-002   1.8658886312259977     
   3.0499999229505192E-002   1.8658949519617385     
   3.0599999226978980E-002   1.8659012933411694     
   3.0699999224452768E-002   1.8659076553672891     
   3.0799999221926555E-002   1.8659140380431001     
   3.0899999219400343E-002   1.8659204413716239     
   3.0999999216874130E-002   1.8659268653558887     
   3.1099999214347918E-002   1.8659333099989233     
   3.1199999211821705E-002   1.8659397753037850     
   3.1299999209295493E-002   1.8659462612735218     
   3.1399999206769280E-002   1.8659527679112031     
   3.1499999204243068E-002   1.8659592952199064     
   3.1599999201716855E-002   1.8659658432027146     
   3.1699999199190643E-002   1.8659724118627254     
   3.1799999196664430E-002   1.8659790012030448     
   3.1899999194138218E-002   1.8659856112267865     
   3.1999999191612005E-002   1.8659922419370760     
   3.2099999189085793E-002   1.8659988933370479     
   3.2199999186559580E-002   1.8660055654298477     
   3.2299999184033368E-002   1.8660122582186276     
   3.2399999181507155E-002   1.8660189717065554     
   3.2499999178980943E-002   1.8660257058968039     
   3.2599999176454730E-002   1.8660324607925558     
   3.2699999173928518E-002   1.8660392363970053     
   3.2799999171402305E-002   1.8660460327133559     
   3.2899999168876093E-002   1.8660528497448217     
   3.2999999166349880E-002   1.8660596874946234     
   3.3099999163823668E-002   1.8660665459659938     
   3.3199999161297455E-002   1.8660734251621816     
   3.3299999158771243E-002   1.8660803250864284     
   3.3399999156245030E-002   1.8660872457420070     
   3.3499999153718818E-002   1.8660941871321814     
   3.3599999151192605E-002   1.8661011492602380     
   3.3699999148666393E-002   1.8661081321294632     
   3.3799999146140181E-002   1.8661151357431649     
   3.3899999143613968E-002   1.8661221601046505     
   3.3999999141087756E-002   1.8661292052172409     
   3.4099999138561543E-002   1.8661362710842606     
   3.4199999136035331E-002   1.8661433577090594     
   3.4299999133509118E-002   1.8661504650949847     
   3.4399999130982906E-002   1.8661575932453955     
   3.4499999128456693E-002   1.8661647421636554     
   3.4599999125930481E-002   1.8661719118531523     
   3.4699999123404268E-002   1.8661791023172691     
   3.4799999120878056E-002   1.8661863135594072     
   3.4899999118351843E-002   1.8661935455829759     
   3.4999999115825631E-002   1.8662007983913937     
   3.5099999113299418E-002   1.8662080719880847     
   3.5199999110773206E-002   1.8662153663764869     
   3.5299999108246993E-002   1.8662226815600529     
   3.5399999105720781E-002   1.8662300175422342     
   3.5499999103194568E-002   1.8662373743264999     
   3.5599999100668356E-002   1.8662447519163281     
   3.5699999098142143E-002   1.8662521503152003     
   3.5799999095615931E-002   1.8662595695266173     
   3.5899999093089718E-002   1.8662670095540825     
   3.5999999090563506E-002   1.8662744704011132     
   3.6099999088037293E-002   1.8662819520712310     
   3.6199999085511081E-002   1.8662894545679760     
   3.6299999082984868E-002   1.8662969778948861     
   3.6399999080458656E-002   1.8663045220555228     
   3.6499999077932443E-002   1.8663120870534440     
   3.6599999075406231E-002   1.8663196728922260     
   3.6699999072880019E-002   1.8663272795754524     
   3.6799999070353806E-002   1.8663349071067157     
   3.6899999067827594E-002   1.8663425554896198     
   3.6999999065301381E-002   1.8663502247277757     
   3.7099999062775169E-002   1.8663579148248060     
   3.7199999060248956E-002   1.8663656257843426     
   3.7299999057722744E-002   1.8663733576100261     
   3.7399999055196531E-002   1.8663811103055090     
   3.7499999052670319E-002   1.8663888838744545     
   3.7599999050144106E-002   1.8663966783205304     
   3.7699999047617894E-002   1.8664044936474145     
